Curve Stress xx
-8.960626018961193e-08 -216.0394843676487
0.0003377259708940983 -88.17827688742838
0.0006755415815860033 1154.420133023769
0.001013357192277908 894.9264118588047
0.001351172686554492 2194.707185426199
0.001688898773863912 122.6723242660879
0.002026714384555817 -39.85182360103929
0.002364529995247722 1327.955558498474
0.002702345373108983 -1212.628045291091
0.003040160983800888 -1697.041452277981
0.003377976594492793 628.0085618129447
0.003715881844982505 549.5328467385013
0.00405369745567441 -603.1330254698333
0.004391423426568508 4.563669201159922
0.00472923880442977 1812.222493759841
0.005067054647952318 474.0598126756311
0.00540487002581358 3808.271601502823
0.005742685869336128 -1657.324900343015
0.00608050124719739 -2375.512764633294
0.006418317090719938 2483.651280521605
0.006756043061614037 1661.138779181818
0.007093858439475298 1638.2926435471
0.007431674282997847 -359.917883077969
0.007769489660859108 1584.586670851112
0.008107305504381657 419.9286248268861
0.008445120416581631 -296.397477564389
0.008782936260104179 1358.168601004417
0.009120662696659565 1801.189657749325
0.009458477608859539 3775.819809656237
0.009796293452382088 -2396.382447083738
0.01013410929590464 -3111.371505151035
0.01047192513942719 49.71032126751817
0.01080974005162716 1988.081530642804
0.01114755589514971 -2014.696425906594
0.01148528233170509 1686.330705564577
0.01182309724390507 1421.167885122855
0.01216091308742762 -2143.213529233629
0.01249872893095016 -1116.422491310986
0.01283654384315014 1342.075026523902
0.01317435968667269 148.8674590138371
0.01351217553019524 1850.448103795055
0.01384990103542805 -2606.688137330449
0.0141877168789506 5465.928407434501
0.01452553272247314 614.6809504830611
0.01486334856599569 -169.0083627260591
0.01520116347819567 5076.957487667002
0.01553897932171822 3769.700637205633
0.01587679423391819 -511.7996365570905
0.01621452160179615 2542.512265369931
0.01655233651399612 921.1347595096645
0.0168901514261961 1311.691369195079
0.01722796820104122 2296.698619336813
0.0175657831132412 -48.03879123745137
0.01790359802544117 -547.2309148170781
0.01824141480028629 -1986.2472189237
0.0185791403055191 419.0175252337344
0.01891695521771908 2427.251785683244
0.0192547719925642 4164.593112374271
0.01959258690476418 10.36398743734698
0.0199304036796093 -1245.015115412715
0.02026821859180927 4905.990380095746
0.02060603350400925 2645.640971758149
0.02094376087188721 622.1003017109707
0.02128157578408718 3350.601286920185
0.02161939069628716 -78.23422976076682
0.02195720747113228 2303.211045039998
0.02229502238333225 -302.8602151714956
0.02263283729553223 2747.524753497703
0.02297065407037735 1571.177465086026
0.02330837957561016 1429.50341681932
0.02364619448781013 4921.249861420083
0.02398401126265526 4538.488401095428
0.02432182617485523 6.759535061487952
0.02465964108705521 1943.003781568219
0.02499745786190033 2609.407497183347
0.0253352727741003 2569.592259507517
0.02567299827933311 2141.767140866752
0.02601081505417824 2430.568964847322
0.02634862996637821 -379.1334298575782
0.02668644487857819 3467.117284681322
0.02702426165342331 2410.404056282727
0.02736207656562328 4277.107436281619
0.02769989334046841 3994.413674340135
0.02803761884570122 -1009.654914466319
0.02837543375790119 316.4002278309284
0.02871325053274632 3074.782941542167
0.02905106544494629 -495.3483272351278
0.02938888035714626 -1886.644799840532
0.02972669713199139 1308.709353651453
0.03006451204419136 -2875.521546232603
0.03040223754942417 3619.142668691491
0.03074005432426929 710.7318647608221
0.03107786923646927 92.7650041843301
0.03141568601131439 2318.993419395864
0.03175349906086922 1443.028041844532
0.03209131583571434 1118.472348934729
0.03242913261055946 4185.220873187984
0.03276703506708145 2423.850589305959
0.03310476243495941 2007.634047309932
0.03344257920980453 917.624289426934
0.03378039225935936 -1410.430423979424
0.03411820903420448 1915.61010757417
0.03445602580904961 1439.507528289633
0.03479383885860443 -1869.779392344848
0.03513165563344955 1889.103195227523
0.03546938300132751 2875.157385756608
0.03580719605088234 -727.7886833651481
0.03614501282572746 5494.429533636287
0.03648282960057259 -310.3517596742415
0.03682064637541771 -881.250727008308
0.03715845942497253 3636.972583124124
0.03749627619981766 2311.744260317066
0.03783400356769562 2001.461628251901
0.03817181661725044 1671.857101129191
0.03850963339209557 2767.114607740395
0.03884745016694069 2457.562749459065
0.03918526321649551 975.8138893779546
0.03952307999134064 103.3770804319403
0.03986089676618576 1953.818982190137
0.04019862040877342 3840.906377807509
0.04053643718361855 2311.238418643451
0.04087425395846367 1273.354787192477
0.04121206700801849 3637.887396541742
0.04154988378286362 621.2169681886199
0.04188770055770874 1330.560240594803
0.04222551360726357 -940.1977182061479
0.04256324097514153 3014.769949471414
0.04290105774998665 -607.1637301995202
0.04323887079954147 3123.513262983591
0.0435766875743866 5430.348753343514
0.04391450434923172 1407.46187412481
0.04425231739878654 6374.770662199904
0.04459013417363167 2597.021174218096
0.04492786154150963 2672.484662488061
0.04526567459106445 2971.040926634356
0.04560349136590958 4995.462832291634
0.0459413081407547 5225.388070770139
0.04627912119030952 4237.833076937729
0.04661693796515465 3040.490921948185
0.04695475473999977 2265.650884820187
0.04729247838258743 3241.037388161409
0.04763029515743256 4302.580446212591
0.04796811193227768 2351.190097902604
0.0483059249818325 4402.262816134609
0.04864374175667763 5552.747533633255
0.04898155853152275 -900.1319535317472
0.04931937158107758 467.6279978872277
0.04965709894895554 4861.262715103082
0.04999491572380066 1644.257583794276
0.05033272877335548 1508.505497065564
0.05067054554820061 7260.276962945432
0.05100836232304573 3098.924229086375
0.05134617537260056 2377.389288379538
0.05168399214744568 -533.8984352349785
0.05202171951532364 -3170.357222313742
0.05235953256487846 927.6184225050094
0.05269734933972359 1959.137471354871
0.05303516611456871 2025.611312366262
0.05337298288941383 4803.559626640923
0.05371079593896866 2261.558894779942
0.05404861271381378 2269.539569574561
0.05438634008169174 3803.785841910706
0.05472415313124657 2325.338074781009
0.05506196990609169 1945.303296646387
0.05539978668093681 376.6184133939609
0.05573759973049164 3106.790173186438
0.05607541650533676 4648.573405597713
0.05641323328018188 4405.940574435572
0.05675095692276955 2735.641491947741
0.05708877369761467 3378.135234149958
0.05742659047245979 1753.043120438063
0.05776440352201462 1671.468683513968
0.05810222029685974 3272.297061276236
0.05844003707170486 3915.91536487077
0.05877785012125969 3213.181255381634
0.05911557748913765 4487.871213746688
0.05945339426398277 5164.769912070822
0.0597912073135376 3109.740224524295
0.06012902408838272 5052.940174993007
0.06046684086322784 4610.267397864555
0.06080465391278267 4086.925786115859
0.06114247068762779 4290.709076854502
0.06148019805550575 3506.499514541496
0.06181810051202774 4241.17433399239
0.06215591728687286 5954.440002539671
0.06249373406171799 383.5143011097769
0.06283155083656311 3407.058332376067
0.06316936761140823 6805.676299237502
0.06350717693567276 2852.064306666069
0.06384499371051788 862.6697286550686
0.06418272107839584 -1760.70964010896
0.06452053785324097 3621.691974235599
0.06485835462808609 3887.192042679505
0.06519617140293121 4287.004596568059
0.06553398072719574 1710.46634403461
0.06587179750204086 4016.502969913969
0.06620961427688599 3285.092895210071
0.06654734164476395 4225.716922292803
0.06688515841960907 -949.9205587692089
0.06722297519445419 5536.753128014012
0.06756078451871872 4534.54320447947
0.06789860129356384 6512.233558630462
0.06823641806840897 1540.63658687545
0.06857423484325409 4340.554522891814
0.06891196221113205 4476.504676814179
0.06924977898597717 -721.2343890629484
0.0695875883102417 3855.839434456056
0.06992540508508682 1576.577556831486
0.07026322185993195 2341.762952286917
0.07060103863477707 2797.408606107731
0.07093885540962219 2530.540780854235
0.07127658277750015 6809.317283365019
0.07161439210176468 3490.934940796009
0.0719522088766098 124.5780323275269
0.07229002565145493 -1271.948196309201
0.07262784242630005 5610.020610807355
0.07296565920114517 5102.928410071607
0.0733034759759903 -2458.870770893818
0.07364119589328766 273.1806982965507
0.07397901266813278 5459.926982274967
0.07431682944297791 3056.889332363944
0.07465464621782303 1160.72413476297
0.07499246299266815 2359.167683498868
0.07533027976751328 7073.450344859996
0.0756680965423584 -561.7968780269308
0.07600581645965576 2303.161014038358
0.07634363323450089 1704.348266932074
0.07668145000934601 3471.377795790644
0.07701926678419113 4357.65945992699
0.07735708355903625 5601.40238160446
0.07769490033388138 2237.601470818925
0.0780327096581459 2053.143834352966
0.07837043702602386 2855.099293649417
0.07870825380086899 2186.057959343855
0.07904607057571411 3299.244650903285
0.07938388735055923 215.3318247950444
0.07972170412540436 5234.581713818151
0.08005951344966888 3556.836652180408
0.08039733022451401 1725.437887229289
0.08073505759239197 4597.119836937877
0.08107287436723709 323.117371514923
0.08141069114208221 2353.007266660086
0.08174850791692734 4137.250709863391
0.08208631724119186 6155.140087193747
0.08242413401603699 6574.809935393755
0.08276195079088211 5068.104485741341
0.08309967815876007 2549.997212524406
0.08343749493360519 3037.180232976527
0.08377531170845032 3727.149980013739
0.08411312103271484 4163.956330329677
0.08445093780755997 2794.73799572326
0.08478875458240509 4543.879403039882
0.08512657135725021 743.7743299144591
0.08546429872512817 -848.0789799004871
0.0858021154999733 -1396.075806400163
0.08613992482423782 3636.791208954129
0.08647774159908295 5083.546659650055
0.08681555837392807 4899.269408984167
0.08715337514877319 3336.604140673826
0.08749119192361832 2055.177401764037
0.08782891929149628 3848.263929909137
0.0881667286157608 1588.601368825091
0.08850454539060593 5732.227506976731
0.08884236216545105 3591.899241191479
0.08918017894029617 3388.803055038917
0.0895179957151413 4112.036322042264
0.08985581248998642 5577.348689945742
0.09019353240728378 -388.7983057230846
0.09053134918212891 -483.3287412723522
0.09086925536394119 5331.976764425151
0.09120707213878632 -2108.15679166761
0.09154488891363144 1267.222325507439
0.09188270568847656 4800.928942094156
0.09222052246332169 2212.852140762594
0.09255833178758621 880.9622900353903
0.09289605915546417 3711.406746160546
0.0932338759303093 1829.572113607142
0.09357169270515442 1382.727435288845
0.09390950947999954 2516.982545433951
0.09424732625484467 5356.207820967327
0.09458513557910919 4956.984132409686
0.09492295235395432 6229.797403526271
0.09526067972183228 5003.497886784917
0.0955984964966774 5202.82227817287
0.09593631327152252 5555.968594223788
0.09627413004636765 -1159.519174895065
0.09661193937063217 2246.396924205999
0.09694975614547729 4926.430411604233
0.09728757292032242 4489.573807637624
0.09762530028820038 4385.636757011195
0.0979631170630455 6406.773917207739
0.09830093383789062 3910.623521066929
0.09863874316215515 4242.015262345354
0.09897655993700027 1988.824482315741
0.0993143767118454 3565.904254650812
0.09965219348669052 2492.119517810523
0.09998992085456848 4311.503468358103
0.1003277376294136 2252.58761209852
0.1006655469536781 712.8660094815411
0.1010033637285233 974.4387732179566
0.1013411805033684 4277.976489589188
0.1016789972782135 3093.080212212865
0.1020168140530586 5205.925502142823
0.1023545414209366 4747.480533996035
0.1026923507452011 3604.778019898908
0.1030301675200462 -379.0241255808368
0.1033679842948914 1742.795267089175
0.1037058010697365 7627.576601448528
0.1040436178445816 3211.754166976333
0.1043814346194267 4080.212505796689
0.1047191619873047 -231.1449668885558
0.1050569713115692 7559.767216339347
0.1053947880864143 1728.588702313762
0.1057326048612595 3354.031348203958
0.1060704216361046 587.3863836215971
0.1064082384109497 1764.128587327083
0.1067460551857948 2468.93281715675
0.1070837751030922 466.1865843330636
0.1074215918779373 4063.178632849883
0.1077594086527824 3389.209041059837
0.1080972254276276 5009.207383262367
0.1084350422024727 2521.115557370199
0.1087728589773178 2775.468616161902
0.1091106683015823 6785.291490841015
0.1094483956694603 119.6443615710301
0.1097862124443054 2807.993301479307
0.1101240292191505 5641.739289461591
0.1104618459939957 -66.19975966205496
0.1107996627688408 3803.948167249153
0.1111374720931053 401.9294258264412
0.1114752888679504 3026.676921322146
0.1118130162358284 -268.4196615705451
0.1121508330106735 2752.219297473743
0.1124886497855186 2169.383548754456
0.1128264665603638 4699.375412292542
0.1131642758846283 4887.903402025953
0.1135020926594734 2689.065556236312
0.1138399094343185 1886.515159661394
0.1141776368021965 1781.581388263392
0.1145154535770416 1971.814168110791
0.1148532703518867 1705.729999962239
0.1151910796761513 2336.980877657727
0.1155288964509964 4010.126608896183
0.1158667132258415 6628.370099162619
0.1162045300006866 6128.07349740026
0.1165422573685646 3329.008672202902
0.1168800741434097 5654.104736125608
0.1172178834676743 4803.752970739815
0.1175557002425194 2486.807426815813
0.1178935170173645 4702.36822819516
0.1182313337922096 5187.292174347036
0.1185691505670547 1995.81700791784
0.1189069673418999 5467.806768137903
0.1192446872591972 6617.743155179413
0.1195825040340424 2906.679742640541
0.1199204102158546 3459.706349876411
0.1202582269906998 2687.059417166086
0.1205960437655449 4118.11484004808
0.12093386054039 1777.812894701641
0.1212716773152351 4857.157545578953
0.1216093972325325 2128.428956738651
0.1219472140073776 1920.772876754133
0.1222850307822227 4283.170940373961
0.1226228475570679 3839.024748090807
0.122960664331913 2822.0390593502
0.1232984811067581 4981.00200822733
0.1236362904310226 3853.982331519712
0.1239740177989006 4769.533704226999
0.1243118345737457 2114.409415857295
0.1246496513485909 3631.995986921929
0.124987468123436 3706.517093778378
0.1253252774477005 4379.422874141208
0.1256631016731262 3757.804169540043
0.1260009109973907 4126.541729755983
0.1263386458158493 4020.56460317538
0.1266764551401138 5792.986980538443
0.1270142644643784 246.7118545908687
0.1273520886898041 3166.350739786546
0.1276898980140686 6372.214610400574
0.1280277222394943 6132.564682801078
0.1283655315637589 3295.438858745283
0.1287032514810562 3163.894683529428
0.1290410757064819 3732.469281428505
0.1293788850307465 5323.755409067116
0.1297167092561722 5089.447679772229
0.1300545185804367 1167.021561670541
0.1303923428058624 4666.968106330097
0.130730152130127 3811.938627858132
0.1310678720474243 3882.764770530864
0.13140569627285 6082.373232606221
0.1317435055971146 5185.233250604958
0.1320813298225403 2554.892558574224
0.1324191391468048 5226.845245807945
0.1327569633722305 2652.958901197125
0.1330947726964951 1112.756021915221
0.1334324926137924 5421.835243075147
0.1337703168392181 5856.584427340754
0.1341081261634827 2956.98470442797
0.1344459503889084 2817.340572826447
0.1347837597131729 1717.391797831355
0.1351215690374374 4533.175998774627
0.1354593932628632 6490.978462018215
0.1357971131801605 5075.011353729706
0.1361349374055862 3555.823060267265
0.1364727467298508 1909.611422782995
0.1368105709552765 4850.509938981684
0.137148380279541 5459.141301681072
0.1374861896038055 5879.400873680701
0.1378240138292313 5394.637671181936
0.1381617337465286 8554.55930413185
0.1384995579719543 2967.995853824103
0.1388373672962189 2481.256611081397
0.1391751766204834 6777.244131402874
0.1395130008459091 1757.501058409563
0.1398508101701736 6512.515142079892
0.1401886343955994 1453.846944662929
0.1405263543128967 5947.23541060975
0.1408641785383224 6788.899267189086
0.141201987862587 4535.909189971289
0.1415397971868515 4109.596611456596
0.1418776214122772 2986.7196809291
0.1422154307365417 6955.885699844438
0.1425532549619675 1887.136622215713
0.142891064286232 161.313714640075
0.1432287842035294 2407.802020019778
0.1435666084289551 3944.731214812939
0.1439044177532196 3690.157212965803
0.1442422419786453 3211.18783262131
0.1445800513029099 5289.584695793776
0.1449178755283356 2310.666183956173
0.1452556848526001 3646.530038197473
0.1455934047698975 3462.267515165173
0.1459312289953232 1093.63905385257
0.1462690383195877 3925.765581423335
0.1466068625450134 6239.672398581904
0.146944671869278 3376.173380067648
0.1472824960947037 3695.35986581899
0.1476203054189682 8380.67083578641
0.1479580253362656 2133.280053363752
0.1482958495616913 6137.35097818956
0.1486336588859558 2368.121611510023
0.1489715725183487 646.6967009434692
0.1493093818426132 4133.870542602116
0.1496471911668777 4574.522520367361
0.1499850153923035 4676.305705924828
0.1503227353096008 -59.89371097021437
0.1506605595350266 5472.542896842685
0.1509983688592911 3141.195553688586
0.1513361930847168 4862.304620002326
0.1516740024089813 4933.265126063463
0.1520118117332458 6797.282057882868
0.1523496359586716 6633.172448179485
0.1526873558759689 1701.455478053646
0.1530251801013947 6001.632481338421
0.1533629894256592 1979.344813897781
0.1537007987499237 4079.518739184009
0.1540386229753494 4927.856776898796
0.154376432299614 3503.791166815374
0.1547142565250397 3710.094215224845
0.155051976442337 3044.370525533272
0.1553898006677628 6732.305405573817
0.1557276099920273 2514.663814573358
0.1560654193162918 4293.027151099003
0.1564032435417175 3838.787077350503
0.1567410528659821 1902.593992401384
0.1570788770914078 5006.514506670132
0.1574165970087051 4190.833713760785
0.1577544063329697 2802.038064700323
0.1580922305583954 3837.217870506955
0.1584300398826599 1141.177896051242
0.1587678641080856 6250.528377516656
0.1591056734323502 3429.840215988176
0.1594434976577759 2050.801939202421
0.1597812175750732 4296.238780059194
0.1601190268993378 4341.752627835968
0.1604568511247635 5450.719926617017
0.160794660449028 2930.532549234469
0.1611324846744537 411.7316819166712
0.1614702939987183 4679.822120983451
0.161808118224144 4259.91259383519
0.1621458381414413 1725.344423014556
0.1624836474657059 1955.723401972735
0.1628214716911316 7155.328917901208
0.1631592810153961 4112.004359087615
0.1634971052408218 29.30657894416599
0.1638349145650864 5856.643146892124
0.1641727238893509 4678.763995796287
0.1645104587078094 2025.373782162725
0.164848268032074 1668.475288879296
0.1651860922574997 3159.301386493181
0.1655239015817642 2475.530762158903
0.1658617258071899 755.9910610751805
0.1661995351314545 6471.183258922804
0.166537344455719 2661.04313262487
0.1668751686811447 4645.650684161013
0.1672128885984421 4441.185334148727
0.1675507128238678 3981.513454636822
0.1678885221481323 4184.410324681536
0.1682263314723969 1199.667212877682
0.1685641556978226 7575.31807614539
0.1689019650220871 3149.268409687774
0.1692397892475128 4611.05116154076
0.1695775091648102 5217.193898221146
0.1699153333902359 3628.844973279146
0.1702531427145004 3459.875595263081
0.170590952038765 4530.258879926627
0.1709287762641907 4541.235758390204
0.1712665855884552 2068.087362744865
0.1716044098138809 4655.331901325778
0.1719421297311783 6645.435073062607
0.1722799390554428 5041.252643106407
0.1726177632808685 3214.254154782888
0.1729555726051331 2667.99972271265
0.1732933968305588 3273.156952556834
0.1736312061548233 1195.004367184809
0.173969030380249 4053.525390765086
0.1743067502975464 5122.400207413585
0.1746445596218109 2934.60682131723
0.1749823838472366 6068.575444427864
0.1753201931715012 632.205529849062
0.1756580173969269 4211.573089807656
0.1759958267211914 4254.515398498051
0.1763336509466171 1387.571376732972
0.1766713708639145 614.4153260014938
0.177009180188179 2646.133865320249
0.1773470044136047 765.3585599099614
0.1776848137378693 486.8631455703827
0.1780227273702621 1255.526374487939
0.1783605366945267 2831.283980859429
0.1786983460187912 1746.591139661525
0.1790360808372498 3868.700065568566
0.1793738901615143 3451.30760218418
0.17971171438694 1796.528508025866
0.1800495237112045 993.538867437593
0.1803873479366302 -3108.998059401252
0.1807251572608948 3919.441051024234
0.1810629665851593 2346.043659695041
0.1814007014036179 1977.211023940531
0.1817385107278824 1358.628996479276
0.1820763349533081 3793.009783918567
0.1824141442775726 3917.765155462435
0.1827519536018372 2820.515364345304
0.1830897778272629 3983.627569679838
0.1834275871515274 4055.811236562448
0.183765321969986 5026.311509389296
0.1841031312942505 1325.670321257016
0.1844409555196762 2431.068795008961
0.1847787648439407 4697.974650027407
0.1851165741682053 4405.442330702185
0.185454398393631 7459.931004027353
0.1857922077178955 3930.665701920508
0.1861299425363541 6420.619440443982
0.1864677518606186 6535.010351669184
0.1868055611848831 4387.296970692478
0.1871433854103088 6609.646702163559
0.1874811947345734 2595.291558058483
0.1878190189599991 5996.784181380451
0.1881568282842636 585.3088395929256
0.1884945631027222 2754.530401730303
0.1888323724269867 5718.020309143353
0.1891701817512512 4030.133325227884
0.1895080059766769 4428.872452992085
0.1898458153009415 1522.349565617507
0.1901836395263672 3096.496008219486
0.1905214488506317 2065.133721720856
0.1908591687679291 1517.378184947512
0.1911969929933548 5828.205090734334
0.1915348023176193 1613.297897260271
0.191872626543045 5688.601056864917
0.1922104358673096 5505.471188122503
0.1925482600927353 5528.838455304452
0.1928860694169998 727.131307054408
0.1932238787412643 2244.031677508307
0.1935616135597229 2138.41487766093
0.1938994228839874 3789.408517449661
0.1942372471094131 -366.0740405869574
0.1945750564336777 4226.261500723203
0.1949128806591034 -234.7523919283869
0.1952506899833679 1766.63627131008
0.1955884993076324 2403.628153171023
0.195926234126091 2062.042540809524
0.1962640434503555 3129.083412092953
0.1966018676757812 5603.819900042625
0.1969396770000458 1064.369329843893
0.1972774863243103 3966.805240119232
0.197615310549736 6104.05241102118
0.1979531198740005 3996.801688245675
0.1982908546924591 4424.0837912816
0.1986286640167236 2362.73904423662
0.1989664882421494 4267.875663213254
0.1993042975664139 2023.342204010351
0.1996421068906784 2582.140405576858
0.1999799311161041 1978.492224942401
0.2003177404403687 2186.974767712288
0.2006554752588272 3421.293401290133
0.2009932845830917 4847.06143535976
0.2013310939073563 6209.438976615671
0.201668918132782 5849.846169050014
0.2020067274570465 415.2519349243459
0.2023445516824722 3171.025800939949
0.2026823610067368 5738.217289601939
0.2030200958251953 3567.477184116259
0.2033579051494598 6863.950482820224
0.2036957144737244 2916.835466689639
0.2040335386991501 6273.687638556568
0.2043713480234146 5393.324871528569
0.2047091722488403 4437.460268938926
0.2050469815731049 3485.956627162134
0.2053847014904022 4683.193744788249
0.2057225257158279 3300.506593234743
0.2060603350400925 3034.106173946742
0.2063981592655182 1466.45642040169
0.2067359685897827 5269.345497055382
0.2070738822221756 -341.5820672337474
0.2074116915464401 -849.9529652777268
0.2077494114637375 6599.721095253591
0.2080872356891632 3958.685008234847
0.2084250450134277 2710.811732720897
0.2087628692388535 3528.258621331825
0.209100678563118 1021.775758551928
0.2094385027885437 2071.297833274843
0.2097763121128082 1268.798092781772
0.2101140320301056 3803.986511331764
0.2104518562555313 5419.545647261702
0.2107896655797958 3179.765615578458
0.2111274898052216 400.5162617934847
0.2114652991294861 2193.758959309913
0.2118031084537506 -590.8886451187659
0.2121409326791763 2693.33955372901
0.2124786525964737 2411.929279424105
0.2128164768218994 6048.337032068715
0.2131542861461639 2997.96899082421
0.2134921103715897 3090.872960336707
0.2138299196958542 3557.256484936735
0.2141677290201187 3152.931616208731
0.2145055532455444 1253.744857333674
0.2148432731628418 2232.707524165397
0.2151810973882675 2700.483790930488
0.215518906712532 4956.490234162075
0.2158567160367966 193.0608985774521
0.2161945402622223 4449.54312672304
0.2165323495864868 3466.942332923517
0.2168701738119125 3936.6876008138
0.2172079831361771 5049.08173567731
0.2175457179546356 4495.439620492085
0.2178835272789001 3907.360502500908
0.2182213366031647 4562.656130409316
0.2185591608285904 1699.211041898123
0.2188969701528549 5396.767026201222
0.2192347943782806 982.6802091187775
0.2195726037025452 2745.946752569138
0.2199103236198425 1856.83262622359
0.2202481478452682 861.5344673214562
0.2205859571695328 5096.88745365148
0.2209237813949585 1607.631902208051
0.221261590719223 655.0872912171461
0.2215994149446487 6130.437651766074
0.2219372242689133 -1693.636161677951
0.2222749441862106 2040.340846147326
0.2226127684116364 4845.274709614697
0.2229505777359009 2227.261190808309
0.2232884019613266 -1948.148033330898
0.2236262112855911 3654.378506728737
0.2239640355110168 4705.077654339374
0.2243018448352814 2829.811060104772
0.2246395647525787 1984.979590885798
0.2249773889780045 538.92370262201
0.225315198302269 1890.787296993747
0.2256530225276947 3421.101094867066
0.2259908318519592 4961.236011876633
0.2263286411762238 -250.769557402305
0.2266664654016495 1180.56558059701
0.2270041853189468 2970.969627534666
0.2273420095443726 4678.332002342314
0.2276798188686371 1105.29339066416
0.2280176430940628 5062.536952499418
0.2283554524183273 3351.945274668034
0.2286932617425919 4500.132872698873
0.2290310859680176 3108.35616579545
0.2293688058853149 620.876579761377
0.2297066301107407 627.3151822171545
0.2300444394350052 2790.209421941181
0.2303822487592697 1789.498220750511
0.2307200729846954 3229.580809582281
0.23105788230896 4869.205247951227
0.2313957065343857 2901.77001169651
0.231733426451683 -337.3852071600934
0.2320712506771088 2333.165717622776
0.2324090600013733 2861.384667936067
0.2327468693256378 3459.560671173715
0.2330846935510635 2941.386705199207
0.2334225028753281 2176.265453231413
0.2337603271007538 5385.107508174375
0.2340980470180511 1258.483235129381
0.2344358563423157 1829.23839656373
0.2347736805677414 460.1682184405174
0.2351114898920059 3716.474801931008
0.2354493141174316 5982.701603760453
0.2357871234416962 4161.597032220963
0.2361250370740891 191.6043674156796
0.2364627569913864 2187.569909967998
0.2368005663156509 3368.527335534359
0.2371383905410767 2961.163864573273
0.2374761998653412 2664.530892210087
0.2378140240907669 6026.787973249669
0.2381518334150314 2957.147996785893
0.2384896576404572 3055.178396279686
0.2388273775577545 3207.757930542865
0.239165186882019 4704.923360031874
0.2395030111074448 1882.499773596653
0.2398408204317093 973.9958740962068
0.240178644657135 724.2546962086011
0.2405164539813995 1883.259248668418
0.2408542633056641 4210.30198971082
0.2411920875310898 3260.421802430217
0.2415298074483871 -815.7265247232008
0.2418676316738129 4547.618304376992
0.2422054409980774 1497.836007839818
0.2425432652235031 1154.909955740652
0.2428810745477676 557.9686893112288
0.2432188838720322 4300.194586568011
0.2435567080974579 3259.047184989362
0.2438944280147552 2816.806594490394
0.244232252240181 1630.040779227656
0.2445700615644455 289.1397098945009
0.24490787088871 2928.458978781084
0.2452456951141357 586.1839382672582
0.2455835044384003 1439.043893340083
0.245921328663826 2101.511653066276
0.2462590485811234 2434.561108294778
0.2465968728065491 1940.338533698812
0.2469346821308136 4752.003780990239
0.2472724914550781 1197.974650642792
0.2476103156805038 1791.880431367975
0.2479481250047684 1755.100614066663
0.2482859492301941 6388.805509627594
0.2486236691474915 3677.511648807687
0.248961478471756 6876.277482374687
0.2492993026971817 5976.826254958366
0.2496371120214462 4281.763852568739
0.2499749362468719 3349.026041637211
0.2503127455711365 3804.998115358481
0.250650554895401 3785.865285842458
0.2509883046150208 7809.900769301701
0.2513261139392853 4740.119483537178
0.2516639232635498 2752.56497984374
0.2520017325878143 5458.100881524684
0.2523395419120789 2529.093612289695
0.2526773810386658 1647.441957233762
0.2530151903629303 4618.855715222294
0.2533529102802277 2877.628115148312
0.2536907196044922 1174.02315267246
0.2540285289287567 1223.11657603622
0.2543663680553436 3022.575968416613
0.2547041773796082 3928.32743237314
0.2550419867038727 2093.851834022615
0.2553797960281372 2574.644733022858
0.2557175159454346 1968.645687869441
0.2560553550720215 6668.464587029053
0.256393164396286 8590.613552792585
0.2567309737205505 2424.037865663332
0.2570687830448151 230.3191675964576
0.2574065923690796 4915.590317845336
0.2577444314956665 -1447.115999875375
0.2580821514129639 3208.76706360805
0.2584199607372284 2688.647044069808
0.2587577700614929 2105.368921426834
0.2590956091880798 1746.90151805296
0.2594334185123444 -275.0283568669558
0.2597712278366089 3037.597506500807
0.2601090371608734 4131.652785019133
0.2604467570781708 1317.49079016968
0.2607845962047577 -1780.144495204301
0.2611224055290222 2520.96639393383
0.2614602148532867 4977.200158219004
0.2617980241775513 5084.748971656591
0.2621358335018158 1591.456929487925
0.2624736726284027 4375.653504443865
0.2628113925457001 4030.964345912029
0.2631492018699646 1413.714536014658
0.2634870111942291 2461.094277688082
0.2638248205184937 7882.125282541918
0.2641626596450806 1467.314371815625
0.2645004689693451 2110.462215503038
0.2648382782936096 985.4715002174689
0.2651760876178741 -973.6987904482336
0.2655139267444611 3572.874437741567
0.2658517360687256 7013.080598507241
0.2661895453929901 -2228.063054101986
0.2665273547172546 3542.696688347971
0.2668651640415192 3334.613543520401
0.2672030031681061 4094.976866314211
0.2675408124923706 3664.265310220729
0.267878532409668 2816.15424720556
0.2682163417339325 5987.139884240226
0.268554151058197 3904.871274796063
0.2688919901847839 4274.82024708644
0.2692297995090485 2435.610187791162
0.269567608833313 4927.139768427264
0.2699054181575775 3295.447110116336
0.2702431380748749 1193.205108262418
0.2705809772014618 772.5508775282667
0.2709187865257263 1941.644201334043
0.2712565958499908 680.1965340698304
0.2715944051742554 3083.376129054142
0.2719322144985199 2740.916276354893
0.2722700536251068 2819.960600360229
0.2726077735424042 2440.160768707885
0.2729455828666687 -631.0840106450561
0.2732833921909332 3651.990858088106
0.2736212313175201 2372.870309427566
0.2739590406417847 -139.5522248681987
0.2742968499660492 3059.556929152083
0.2746346592903137 1865.012548671964
0.2749723792076111 35.53819916331207
0.275310218334198 1697.488919758727
0.2756480276584625 1420.212326406873
0.2759858369827271 2325.457356997056
0.2763236463069916 7645.526609621346
0.2766614556312561 2503.417089479447
0.276999294757843 -115.2323799934723
0.2773370146751404 1187.769124933447
0.2776748239994049 -294.0220420007049
0.2780126333236694 4528.861325313188
0.278350442647934 5019.066004327492
0.2786882817745209 -529.0272205976322
0.2790260910987854 740.320693364763
0.2793639004230499 1128.845146118739
0.2797016203403473 2018.082923291633
0.2800394594669342 4521.764870591096
0.2803772687911987 1113.511395442226
0.2807150781154633 2750.502108942666
0.2810528874397278 1249.4235788679
0.2813906967639923 -1293.986380837197
0.2817285358905792 214.8642613403231
0.2820662558078766 1092.939414377687
0.2824040651321411 2386.294242790104
0.2827418744564056 5115.613309769237
0.2830796837806702 45.78691795467623
0.2834175229072571 4453.115389526646
0.2837553322315216 373.6938909434834
0.2840931415557861 -785.0688827234073
0.2844308614730835 -54.03060766896559
0.284768670797348 3568.700251643924
0.2851065099239349 1814.448858233895
0.2854443192481995 1998.852622464064
0.285782128572464 2737.872690050699
0.2861199378967285 4364.370091620897
0.286457747220993 3690.849311492223
0.2867954969406128 5824.275002646519
0.2871333062648773 4300.654166557806
0.2874711155891418 5756.046305487102
0.2878089249134064 4650.5677431309
0.2881467640399933 4124.592863448479
0.2884845733642578 5026.327132774511
0.2888223826885223 3276.221496582305
0.2891601026058197 2822.045279803013
0.2894979119300842 3575.555402450617
0.2898357510566711 2165.453863661293
0.2901735603809357 2809.844486225278
0.2905113697052002 2039.220973686178
0.2908491790294647 2315.130144580402
0.2911869883537292 2847.968214312038
0.291524738073349 7540.001000793982
0.2918625473976135 2740.662527154625
0.2922003567218781 628.5619038091573
0.2925381660461426 1908.190333140824
0.2928759753704071 4268.006281668751
0.293213814496994 3535.074613833902
0.2935516238212585 5775.422998786504
0.2938893437385559 3533.753932061774
0.2942272424697876 2146.24862178969
0.2945650815963745 4579.092138055622
0.294902890920639 4285.304266430309
0.2952407002449036 4584.646213643972
0.2955785095691681 645.176381565678
0.2959163188934326 4458.722676814485
0.2962541580200195 -247.1549302065761
0.2965918779373169 1685.493473690108
0.2969296872615814 1995.719779354312
0.2972674965858459 2293.152381930359
0.2976053059101105 3314.682094521541
0.2979431450366974 7026.369321509884
0.2982809543609619 5109.636269971411
0.2986187636852264 5741.882595646635
0.2989564836025238 1889.845590168331
0.2992942929267883 4700.168501910674
0.2996321320533752 5837.740088644759
0.2999699413776398 4719.236883235302
0.3003077507019043 809.4738467227619
0.3006455600261688 3498.464232358929
0.3009833693504333 7095.033495446404
0.3013211190700531 4014.579467345251
0.3016589283943176 673.6289636426536
0.3019967377185822 3382.633249560971
0.3023345470428467 3460.316025753176
0.3026723861694336 3571.241338580181
0.3030101954936981 -1557.44558877913
0.3033480048179626 5226.495997277127
0.30368572473526 1759.167537673806
0.3040235340595245 3654.661575981751
0.3043613731861115 5308.503653708166
0.304699182510376 3761.440420166597
0.3050369918346405 4800.373650177073
0.305374801158905 2707.080799825937
0.3057126104831696 2665.239010258092
0.3060503602027893 7319.678235037934
0.3063881695270538 699.2402081366891
0.3067259788513184 -930.0609080700165
0.3070637881755829 335.0584729693988
0.3074015974998474 2232.678016882094
0.3077394366264343 2049.828249765857
0.3080772459506989 -1603.968681011237
0.3084149658679962 5765.511885912297
0.3087527751922607 3764.889804635948
0.3090906143188477 406.9283219460369
0.3094284236431122 2644.359006397637
0.3097662329673767 4447.460943298945
0.3101040422916412 3060.790739530071
0.3104418516159058 4403.093083041208
0.3107796013355255 2617.936049019898
0.31111741065979 1097.428117145797
0.3114552199840546 -1530.332810689051
0.3117930293083191 3983.645225635906
0.3121308386325836 4289.084001434711
0.3124686777591705 3416.937745062757
0.3128064870834351 2659.152063479906
0.3131442070007324 3172.645294463888
0.3134820163249969 -40.49182467801394
0.3138198256492615 3092.96281800818
0.3141576647758484 2727.450842441019
0.3144954741001129 442.3893187237219
0.3148332834243774 4424.068390694359
0.315171092748642 4578.278426451416
0.3155088126659393 4566.793337721775
0.3158466517925262 1936.957636722647
0.3161844611167908 144.6519105060793
0.3165222704410553 2598.455677929727
0.3168600797653198 1388.442295274041
0.3171979188919067 2069.20686734753
0.3175357282161713 -1323.885852330544
0.3178734481334686 1594.695791885816
0.3182112574577332 1510.611000927275
0.3185490667819977 803.4138965702085
0.3188869059085846 582.1422245966536
0.3192247152328491 3142.93264984351
0.3195625245571136 2976.212383859754
0.3199003338813782 620.0069058540942
0.3202380537986755 3316.227261680386
0.3205758929252625 4840.520394863251
0.320913702249527 -2596.413832568398
0.3212515115737915 5310.778884480401
0.321589320898056 2607.661425256315
0.3219271302223206 2447.308911142622
0.3222649693489075 3617.546434565062
0.3226026892662048 3483.074178935848
0.3229404985904694 1972.208674742986
0.323278397321701 792.6706895083513
0.323616236448288 855.5717812983299
0.3239540457725525 1183.88189611929
0.324291855096817 4886.191407855079
0.3246296644210815 5668.767891228039
0.3249674737453461 1458.497481850249
0.3253052234649658 4149.291056110266
0.3256430327892303 1756.946215777694
0.3259808421134949 1504.524458302956
0.3263186514377594 -1139.879599205639
0.3266564607620239 6090.595220414542
0.3269942998886108 1217.87592954922
0.3273321092128754 3926.489028854208
0.3276698291301727 703.2033206747529
0.3280076384544373 3302.749483675676
0.3283454477787018 4035.169496599643
0.3286832869052887 -324.0826468701206
0.3290210962295532 641.9922979486553
0.3293589055538177 -1511.655120489851
0.3296967148780823 4624.048568754789
0.3300344347953796 -1242.442519434459
0.3303722739219666 1251.188231205602
0.3307100832462311 1731.13066065116
0.3310478925704956 2341.025431498824
0.3313857018947601 1089.905498873306
0.331723541021347 1414.725313228924
0.3320613503456116 2944.136942640603
0.3323990702629089 4330.414083701115
0.3327368795871735 1517.158684130674
0.333074688911438 4135.858514665601
0.3334125280380249 2961.570422398982
0.3337503373622894 5824.68164931519
0.334088146686554 2587.230687864778
0.3344259560108185 3721.161043795942
0.3347636759281158 2637.132232888209
0.3351015150547028 4210.413482976012
0.3354393243789673 2314.366153711941
0.3357771337032318 6250.217861426235
0.3361149430274963 473.8408982181473
0.3364527523517609 1478.291498694324
0.3367905914783478 2508.421814991921
0.3371283113956451 2317.160379611446
0.3374661207199097 -466.8609073137965
0.3378039300441742 1142.138382400135
0.3381417691707611 2998.662188288482
0.3384795784950256 1848.638794707894
0.3388173878192902 4022.582533497004
0.3391551971435547 1896.061130962541
0.3394929170608521 3605.148062653192
0.339830756187439 -524.8709448839348
0.3401685655117035 2286.510741519587
0.340506374835968 4372.4573700707
0.3408441841602325 2962.100606428523
0.3411819934844971 1823.33431426696
0.341519832611084 1848.508709632357
0.3418575525283813 -29.75749048645768
0.3421953618526459 4658.71333262376
0.3425331711769104 1221.942813286216
0.3428709805011749 3120.654673817569
0.3432088196277618 -564.0598738523104
0.3435466289520264 5232.807207757006
0.3438844382762909 2553.079413408916
0.3442221581935883 2802.428170016205
0.3445599675178528 2779.447839329125
0.3448978066444397 1478.852773731777
0.3452356159687042 3080.125913745064
0.3455734252929688 4370.446941760811
0.3459112346172333 2629.782281184672
0.3462490737438202 3263.750970166667
0.3465867936611176 -580.7421603254903
0.3469246029853821 -1808.445498804756
0.3472624123096466 3257.423622093232
0.3476002216339111 5557.764446997875
0.347938060760498 3800.452376983352
0.3482758700847626 -1235.311001653146
0.3486136794090271 2856.354829470142
0.3489513993263245 2699.53872183616
0.349289208650589 1238.589536930692
0.3496270477771759 3391.991140379154
0.3499648571014404 2495.870236348583
0.350302666425705 843.8776292490177
0.3506404757499695 1850.924639293373
0.350978285074234 3178.580233377146
0.3513160347938538 4267.187927118241
0.3516538441181183 -785.2149885552849
0.3519916534423828 3422.901660265918
0.3523295521736145 1129.7855828292
0.3526673913002014 413.7468968693076
0.3530052006244659 2045.960950259603
0.3533430099487305 4958.100847359808
0.353680819272995 -1902.301392607692
0.3540185391902924 4351.431861375062
0.3543563783168793 1579.078550170566
0.3546941876411438 -2376.345673813868
0.3550319969654083 -47.7427526204479
0.3553698062896729 1460.304872900672
0.3557076156139374 1419.539487599966
0.3560454547405243 2584.977292101411
0.3563831746578217 777.7016961551111
0.3567209839820862 -289.0552762368985
0.3570587933063507 1894.194325418066
0.3573966026306152 2297.757572493095
0.3577344417572021 3256.346791634294
0.3580722510814667 3475.675048674383
0.3584100604057312 1047.769924618674
0.3587477803230286 2798.515710649918
0.3590855896472931 5083.383434651011
0.35942342877388 -1038.397559738811
0.3597612380981445 1897.597955066979
0.3600990474224091 4208.505788951874
0.3604368567466736 6806.630996659622
0.3607746958732605 -2209.591331807296
0.3611124157905579 3491.495914914039
0.3614502251148224 2194.21486205677
0.3617880344390869 -1687.286242932382
0.3621258437633514 1236.358250733197
0.3624636828899384 3994.645704762161
0.3628014922142029 1705.607792040487
0.3631393015384674 280.8374947495009
0.3634770214557648 3709.892337131763
0.3638148307800293 761.8645359607309
0.3641526699066162 2818.231795297218
0.3644904792308807 1736.142531977746
0.3648282885551453 5613.226913006657
0.3651660978794098 856.0158465177926
0.3655039072036743 4244.875297389418
0.3658416569232941 -1012.656290900427
0.3661794662475586 1986.423824784441
0.3665172755718231 3521.96014381723
0.3668550848960876 1056.211853218548
0.3671929240226746 4498.436654062928
0.3675307333469391 2729.018751054599
0.3678685426712036 2915.004583329789
0.368206262588501 3049.051658430192
0.3685440719127655 684.8035951488899
0.3688819110393524 3111.787295504943
0.3692197203636169 1309.404695736703
0.3695575296878815 1750.894117943468
0.369895339012146 2027.707249573055
0.3702331483364105 1899.713724479489
0.3705708980560303 -755.0347467111104
0.3709087073802948 5823.295322764136
0.3712465167045593 1480.343255258153
0.3715843260288239 3682.72757512106
0.3719221353530884 203.7067958656658
0.3722599744796753 -1181.698130647424
0.3725977838039398 4701.00662008888
0.3729355037212372 -598.4030976524128
0.3732733130455017 1013.235901794239
0.3736111223697662 4170.153443683275
0.3739489614963531 586.8185904377194
0.3742867708206177 4858.579029216522
0.3746245801448822 3199.153156370847
0.3749623894691467 2283.986281709383
0.3753001391887665 3998.148811799207
0.375637948513031 195.6995124301191
0.3759757578372955 1614.480301586032
0.3763135671615601 2901.204348951984
0.3766513764858246 3423.049218071116
0.3769892156124115 1653.233056408096
0.377327024936676 1260.400240138497
0.3776647448539734 1267.19652833483
0.3780025541782379 184.1338292790822
0.3783403635025024 597.418041308784
0.3786782026290894 1798.43015307542
0.3790160119533539 3020.594722338453
0.3793538212776184 5318.423617253121
0.3796916306018829 1549.851324580773
0.3800293505191803 -1184.720867744258
0.3803671896457672 -220.8275765840611
0.3807049989700317 3488.611869999924
0.3810428082942963 437.3527294271902
0.381380707025528 -1806.774298317234
0.3817185461521149 6334.765981216462
0.3820563554763794 2498.070480450737
0.3823941648006439 3144.925271688598
0.3827318847179413 3620.042041831932
0.3830696940422058 1934.35783772333
0.3834075331687927 2183.242652152367
0.3837453424930573 954.6278484149133
0.3840831518173218 455.9052695793669
0.3844209611415863 -117.6182907581101
0.3847587704658508 1763.272001426702
0.3850965201854706 4638.830360238304
0.3854343295097351 810.7227120622081
0.3857721388339996 736.561169978591
0.3861099481582642 -3005.715218171887
0.3864477574825287 3169.237782112186
0.3867855966091156 1255.992000846672
0.3871234059333801 4563.322084183475
0.3874611258506775 524.3017293221659
0.387798935174942 2481.928157940959
0.3881367444992065 4963.296741656792
0.3884745836257935 66.96665179166102
0.388812392950058 1981.678459151152
0.3891502022743225 3252.513187695851
0.389488011598587 -411.9552221029326
0.3898257613182068 2309.315280068697
0.3901635706424713 3495.315965046037
0.3905013799667358 18.13539618121766
0.3908391892910004 2504.124622578207
0.3911769986152649 2016.02745239688
0.3915148377418518 2435.093673994648
0.3918526470661163 1559.819440859043
0.3921903669834137 2131.467287748659
0.3925281763076782 5036.228337374473
0.3928659856319427 -687.2215279761128
0.3932038247585297 3493.879641767665
0.3935416340827942 3630.65266818283
0.3938794434070587 2112.92407393926
0.3942172527313232 2851.131009229034
0.3945549726486206 4398.348754374417
0.3948928117752075 3072.831480789611
0.395230621099472 912.6210110749998
0.3955684304237366 802.4430442336547
0.3959062397480011 1319.405714975499
0.396244078874588 2304.31145945731
0.3965818881988525 3666.588404636185
0.3969196081161499 2028.858518635945
0.3972574174404144 2304.959954022905
0.397595226764679 -556.6532379982239
0.3979330658912659 -393.3923985233968
0.3982708752155304 6439.645198944609
0.3986086845397949 3058.160861077282
0.3989464938640594 3697.691119472176
0.3992842137813568 189.3290153454507
0.3996220529079437 -568.3750375065379
0.3999598622322083 -552.3153664930286
0.4002976715564728 -899.0660731808839
0.4006354808807373 1572.174163709274
0.4009732902050018 299.9282890550248
0.4013111293315887 713.8792402817281
0.4016488492488861 1322.590564947328
0.4019866585731506 -2051.302971489407
0.4023244678974152 1077.843761496474
0.4026622772216797 -204.0464328056788
0.4030001163482666 3595.213634820642
0.4033379256725311 1898.501970990689
0.4036757349967957 -2773.035291306654
0.404013454914093 135.5720046495809
0.4043512940406799 4814.019866713204
0.4046891033649445 1652.931289661882
0.405026912689209 1942.691485541411
0.4053647220134735 -505.0774094533888
0.405702531337738 2947.22918602254
0.406040370464325 3194.642347411385
0.4063780903816223 2122.22712070604
0.4067158997058868 -312.2191107533363
0.4070537090301514 594.9160413555849
0.4073915183544159 1197.088961498824
0.4077293574810028 1598.631573309697
0.4080671668052673 3753.040906911241
0.4084049761295319 2292.095877441276
0.4087427854537964 2705.920215383973
0.4090805053710938 2558.679810200424
0.4094183444976807 1993.725898116685
0.4097561538219452 -1470.677495735726
0.4100939631462097 2024.510486477344
0.4104317724704742 -527.59626965603
0.4107697010040283 3193.250495157959
0.4111075103282928 2953.646482631885
0.4114452302455902 2475.797239408403
0.4117830395698547 1118.526879382301
0.4121208488941193 -2639.180886902347
0.4124586880207062 2713.229143211526
0.4127964973449707 2370.798598267731
0.4131343066692352 3012.285529209054
0.4134721159934998 5620.23775429143
0.4138098359107971 -132.9375360774571
0.414147675037384 -792.283903349582
0.4144854843616486 1994.715068338978
0.4148232936859131 576.7808802656579
0.4151611030101776 -58.91817882447928
0.4154989123344421 963.364340251085
0.4158367514610291 408.3758366831854
0.4161744713783264 -2183.547615040915
0.4165122807025909 1192.21077733321
0.4168500900268555 715.0810162008231
0.41718789935112 -1113.578700183493
0.4175257384777069 3620.079098139124
0.4178635478019714 1303.276486941572
0.418201357126236 69.10033994032223
0.4185390770435333 728.7143926066526
0.4188769161701202 1249.79560671373
0.4192147254943848 394.1242766409451
0.4195525348186493 -314.0299666153656
0.4198903441429138 4048.372967011921
0.4202281534671783 328.7709195424468
0.4205659925937653 -464.876502658268
0.4209037125110626 -1509.177435296393
0.4212415218353271 -349.5750779918495
0.4215793311595917 2877.077089326946
0.4219171404838562 1110.840388210135
0.4222549796104431 -28.45198300628214
0.4225927889347076 3961.221804164515
0.4229305982589722 -10.2635336713832
0.4232683181762695 2471.232813702708
0.4236061275005341 -515.2231355855876
0.423943966627121 2500.689878681942
0.4242817759513855 2658.409312477393
0.42461958527565 3690.884557410231
0.4249573945999146 1969.915709505646
0.4252952337265015 -2225.933998810484
0.4256329536437988 1015.011994411059
0.4259707629680634 280.4319771673342
0.4263085722923279 -2955.229452845257
0.4266463816165924 55.86874599063067
0.4269842207431793 -2078.337169655531
0.4273220300674438 4179.996625638179
0.4276598393917084 -284.018296934557
0.4279975593090057 1295.051613403448
0.4283353686332703 3168.014599372845
0.4286732077598572 2129.324944205833
0.4290110170841217 -1077.769969537646
0.4293488264083862 670.1949691507449
0.4296866357326508 1715.982162294598
0.4300244450569153 -992.5283920095115
0.430362194776535 2146.883868129902
0.4307000041007996 4390.240922913162
0.4310378134250641 2267.806255396224
0.4313756227493286 -1702.158155504261
0.4317134320735931 -1513.430244606365
0.4320512712001801 967.6836349440804
0.4323890805244446 -1423.637906589879
0.4327268898487091 -958.8887502116022
0.4330646097660065 4294.058269893059
0.4334024488925934 2512.652507837559
0.4337402582168579 1180.68958449053
0.4340780675411224 -550.7014853046066
0.434415876865387 1634.74219740557
0.4347536861896515 1390.068646341587
0.4350915253162384 285.6739043375084
0.4354292452335358 -3.509563745496646
0.4357670545578003 2282.146564805075
0.4361048638820648 -302.1184431381852
0.4364426732063293 1039.073687856721
0.4367805123329163 -227.5566069489983
0.4371183216571808 -1018.88727209514
0.4374561309814453 -504.1183208086101
0.4377938508987427 -63.12520481384833
0.4381316602230072 3720.763931664343
0.4384694993495941 1184.970225818609
0.4388073086738586 1708.541374999588
0.4391451179981232 2751.673657076266
0.4394829273223877 -2995.311200800055
0.4398208558559418 3014.048299647648
0.4401585757732391 -342.7755743393021
0.4404963850975037 1084.017295979184
0.4408341944217682 76.35771384356443
0.4411720037460327 -1685.557030399246
0.4415098428726196 -483.8595522439496
0.4418476521968842 1724.211161993888
0.4421854615211487 1118.81459235394
0.442523181438446 753.1350082212582
0.4428609907627106 6124.572166588813
0.4431988298892975 1819.310469167369
0.443536639213562 193.4434022327213
0.4438744485378265 -1472.072040382573
0.4442122578620911 53.26395889716461
0.4445500671863556 -1307.183972141202
0.4448878169059753 779.4602201013878
0.4452256262302399 -111.4763793740548
0.4455634355545044 -331.2727455422712
0.4459012448787689 3346.843448961569
0.4462390542030334 -587.4550050580159
0.4465768933296204 -3097.720879848509
0.4469147026538849 -244.5987329719961
0.4472524225711823 2271.246764731703
0.4475902318954468 1593.722804981406
0.4479280710220337 202.3077102910032
0.4482658803462982 -1451.918076747332
0.4486036896705627 1242.491676332507
0.4489414989948273 1272.667752086378
0.4492793083190918 -115.9043342132002
0.4496170580387115 -162.507448499989
0.4499548673629761 1447.032309204652
0.4502926766872406 -2557.521563873633
0.4506304860115051 1700.411301259579
0.4509682953357697 2295.193053667924
0.4513061344623566 876.1421420140699
0.4516439437866211 -3023.391717040995
0.4519816637039185 1345.166882415851
0.452319473028183 4431.908106568921
0.4526572823524475 3260.634862409449
0.4529951214790344 877.2873979720334
0.453332930803299 1490.264421163841
0.4536707401275635 1302.14332638409
0.454008549451828 -202.3864827489616
0.4543462991714478 -1749.772244166566
0.4546841084957123 -801.8886102759648
0.4550219178199768 -255.1953151870916
0.4553597271442413 1123.798312396928
0.4556975364685059 1990.119526484859
0.4560353755950928 1974.638088153111
0.4563731849193573 1467.300671663631
0.4567109942436218 1483.619016413779
0.4570487141609192 437.9769695419866
0.4573865234851837 1088.134745622005
0.4577243626117706 -679.6156329832086
0.4580621719360352 1215.169393446823
0.4583999812602997 1689.631282765487
0.4587377905845642 -495.7014764528137
0.4590755999088287 3168.849554815786
0.4594133496284485 -948.7004496301405
0.459751158952713 2279.615386003153
0.4600889682769775 539.9738121300516
0.4604267776012421 2586.413898278121
0.4607645869255066 1575.402151623023
0.4611024260520935 483.4304933699343
0.461440235376358 4065.567704501289
0.4617779552936554 1972.23945704937
0.4621157646179199 471.1677071915408
0.4624536037445068 2884.668546570915
0.4627914130687714 -714.5623343076256
0.4631292223930359 1774.526757199287
0.4634670317173004 -1263.699327728503
0.4638048410415649 276.7241536457303
0.4641425907611847 474.6379339730319
0.4644804000854492 -196.1120703771668
0.4648182094097137 753.8048476125856
0.4651560187339783 2750.689224763562
0.4654938280582428 -19.69779836793862
0.4658316671848297 104.7419847692823
0.4661694765090942 -141.6107075687229
0.4665071964263916 73.98494655095853
0.4668450057506561 -350.6526855798812
0.4671828150749207 1166.408994714399
0.4675206542015076 -2134.333134485667
0.4678584635257721 451.5994821090081
0.4681962728500366 251.7155542745162
0.4685340821743011 2819.30165818825
0.4688719213008881 1134.984809307211
0.4692097306251526 1898.993384788303
0.4695475399494171 1344.561186157127
0.4698853492736816 -582.5879344828693
0.4702231585979462 329.4749309368481
0.4705609977245331 2590.338332130143
0.4708988070487976 -2101.940674545727
0.471236526966095 -1379.901465686278
0.4715743362903595 -962.897582967846
0.471912145614624 1463.624302027679
0.4722499847412109 1552.889610501122
0.4725877940654755 1073.203710891671
0.47292560338974 2292.60147667389
0.4732634127140045 2259.475178775331
0.4736011326313019 2179.541847319617
0.4739389717578888 -1659.32689815444
0.4742767810821533 398.8382817102175
0.4746145904064178 646.0191426775657
0.4749523997306824 291.8174820635693
0.4752902090549469 333.6545816882947
0.4756280481815338 286.5322167832534
0.4759657680988312 937.9809602093075
0.4763035774230957 -300.2705196094576
0.4766413867473602 -798.0389731558304
0.4769792258739471 3477.26509783719
0.4773170351982117 807.2522711855463
0.4776548445224762 1830.177502050465
0.4779926538467407 1813.779070040232
0.4783303737640381 -1940.414691810361
0.478668212890625 742.803510715089
0.4790060222148895 992.6800878796183
0.4793438315391541 1464.108671683387
0.4796816408634186 2666.262141032444
0.4800194501876831 -1880.317317822077
0.48035728931427 3295.971004968906
0.4806950092315674 -2789.253513557679
0.4810328185558319 808.0277692855236
0.4813706278800964 2556.804828983368
0.481708437204361 -1490.605697680681
0.4820462763309479 3920.763206816354
0.4823840856552124 3068.770554318958
0.4827218949794769 1973.243673398136
0.4830597043037415 125.487222429294
0.4833974540233612 288.8611384032463
0.4837352633476257 461.9614065219292
0.4840730726718903 -307.4927239963934
0.4844108819961548 4604.072608757459
0.4847486913204193 -449.8679847097244
0.4850865304470062 -2063.863910949241
0.4854243397712708 319.7722703335686
0.4857620596885681 -733.4587105030338
0.4860998690128326 669.06424050661
0.4864376783370972 2223.726138406617
0.4867755174636841 773.7616100471739
0.4871133267879486 1146.6808942046
0.4874511361122131 1749.549924218152
0.4877889454364777 1163.422557338155
